        Ar                                                                      
 
        Constituents (Atomic Number:Fraction by Weight)
          18:1.00000
 
        Cross Sections and Attenuation Coefficients
        (Note that 1 b(arn) = 10**(-24) cm2)
 
         PHOTON       SCATTERING       PHOTO-     PAIR PRODUCTION    TOTAL ATTENUATION
         ENERGY   COHERENT  INCOHER.  ELECTRIC     IN        IN        WITH    WITHOUT
                                     ABSORPTION  NUCLEAR  ELECTRON   COHERENT  COHERENT
                                                  FIELD     FIELD     SCATT.    SCATT.
          (MeV)   (b/atom)  (b/atom)  (b/atom)  (b/atom)  (b/atom)    (cm2/g)   (cm2/g)
 
        1.000E-03 2.018E+02 4.696E-01 2.110E+05 0.000E+00 0.000E+00 3.184E+03 3.181E+03
        1.500E-03 1.872E+02 9.421E-01 7.309E+04 0.000E+00 0.000E+00 1.105E+03 1.102E+03
        2.000E-03 1.705E+02 1.462E+00 3.379E+04 0.000E+00 0.000E+00 5.120E+02 5.094E+02
        3.000E-03 1.382E+02 2.466E+00 1.116E+04 0.000E+00 0.000E+00 1.704E+02 1.683E+02
        3.203E-03 1.322E+02 2.654E+00 9.312E+03 0.000E+00 0.000E+00 1.424E+02 1.404E+02
 
 18 K   3.203E-03 1.322E+02 2.654E+00 8.444E+04 0.000E+00 0.000E+00 1.275E+03 1.273E+03
        4.000E-03 1.124E+02 3.332E+00 5.011E+04 0.000E+00 0.000E+00 7.571E+02 7.555E+02
        5.000E-03 9.345E+01 4.046E+00 2.793E+04 0.000E+00 0.000E+00 4.225E+02 4.211E+02
        6.000E-03 7.970E+01 4.624E+00 1.712E+04 0.000E+00 0.000E+00 2.594E+02 2.582E+02
        8.000E-03 6.133E+01 5.501E+00 7.760E+03 0.000E+00 0.000E+00 1.180E+02 1.171E+02
        1.000E-02 4.916E+01 6.161E+00 4.134E+03 0.000E+00 0.000E+00 6.315E+01 6.241E+01
        1.500E-02 3.022E+01 7.330E+00 1.278E+03 0.000E+00 0.000E+00 1.983E+01 1.938E+01
        2.000E-02 2.001E+01 8.048E+00 5.444E+02 0.000E+00 0.000E+00 8.630E+00 8.328E+00
        3.000E-02 1.072E+01 8.727E+00 1.594E+02 0.000E+00 0.000E+00 2.696E+00 2.535E+00
        4.000E-02 6.776E+00 8.961E+00 6.573E+01 0.000E+00 0.000E+00 1.228E+00 1.126E+00
        5.000E-02 4.690E+00 9.013E+00 3.281E+01 0.000E+00 0.000E+00 7.012E-01 6.305E-01
        6.000E-02 3.435E+00 8.975E+00 1.853E+01 0.000E+00 0.000E+00 4.664E-01 4.146E-01
        8.000E-02 2.061E+00 8.767E+00 7.479E+00 0.000E+00 0.000E+00 2.760E-01 2.449E-01
        1.000E-01 1.369E+00 8.493E+00 3.691E+00 0.000E+00 0.000E+00 2.043E-01 1.837E-01
        1.500E-01 6.390E-01 7.800E+00 1.024E+00 0.000E+00 0.000E+00 1.427E-01 1.330E-01
        2.000E-01 3.681E-01 7.209E+00 4.166E-01 0.000E+00 0.000E+00 1.205E-01 1.150E-01
        3.000E-01 1.671E-01 6.314E+00 1.215E-01 0.000E+00 0.000E+00 9.953E-02 9.701E-02
        4.000E-01 9.475E-02 5.674E+00 5.293E-02 0.000E+00 0.000E+00 8.776E-02 8.633E-02
        5.000E-01 6.089E-02 5.189E+00 2.882E-02 0.000E+00 0.000E+00 7.958E-02 7.866E-02
        6.000E-01 4.238E-02 4.805E+00 1.805E-02 0.000E+00 0.000E+00 7.335E-02 7.271E-02
        8.000E-01 2.389E-02 4.225E+00 9.158E-03 0.000E+00 0.000E+00 6.419E-02 6.383E-02
        1.000E+00 1.531E-02 3.801E+00 5.696E-03 0.000E+00 0.000E+00 5.762E-02 5.739E-02
        1.022E+00 1.466E-02 3.761E+00 5.389E-03 0.000E+00 0.000E+00 5.700E-02 5.678E-02
        1.250E+00 9.804E-03 3.400E+00 3.651E-03 2.826E-03 0.000E+00 5.150E-02 5.135E-02
        1.500E+00 6.811E-03 3.090E+00 2.639E-03 1.507E-02 0.000E+00 4.695E-02 4.685E-02
        2.000E+00 3.833E-03 2.638E+00 1.639E-03 5.880E-02 0.000E+00 4.074E-02 4.068E-02
        2.044E+00 3.669E-03 2.605E+00 1.584E-03 6.336E-02 0.000E+00 4.030E-02 4.025E-02
        3.000E+00 1.704E-03 2.076E+00 8.991E-04 1.658E-01 7.263E-04 3.385E-02 3.382E-02
        4.000E+00 9.585E-04 1.731E+00 6.101E-04 2.670E-01 2.965E-03 3.019E-02 3.017E-02
        5.000E+00 6.135E-04 1.495E+00 4.590E-04 3.568E-01 5.908E-03 2.802E-02 2.801E-02
        6.000E+00 4.260E-04 1.322E+00 3.669E-04 4.371E-01 9.073E-03 2.667E-02 2.666E-02
        7.000E+00 3.130E-04 1.188E+00 3.052E-04 5.086E-01 1.223E-02 2.577E-02 2.577E-02
        8.000E+00 2.397E-04 1.081E+00 2.610E-04 5.729E-01 1.530E-02 2.517E-02 2.517E-02
        9.000E+00 1.894E-04 9.938E-01 2.279E-04 6.311E-01 1.823E-02 2.478E-02 2.477E-02
        1.000E+01 1.534E-04 9.208E-01 2.022E-04 6.839E-01 2.103E-02 2.451E-02 2.451E-02
        1.100E+01 1.268E-04 8.588E-01 1.817E-04 7.318E-01 2.368E-02 2.434E-02 2.434E-02
        1.200E+01 1.065E-04 8.054E-01 1.649E-04 7.757E-01 2.618E-02 2.423E-02 2.423E-02
        1.300E+01 9.076E-05 7.588E-01 1.509E-04 8.164E-01 2.855E-02 2.418E-02 2.418E-02
 
        Ar                                                                      
 
        Constituents (Atomic Number:Fraction by Weight)
          18:1.00000
 
        Cross Sections and Attenuation Coefficients
        (Note that 1 b(arn) = 10**(-24) cm2)
 
         PHOTON       SCATTERING       PHOTO-     PAIR PRODUCTION    TOTAL ATTENUATION
         ENERGY   COHERENT  INCOHER.  ELECTRIC     IN        IN        WITH    WITHOUT
                                     ABSORPTION  NUCLEAR  ELECTRON   COHERENT  COHERENT
                                                  FIELD     FIELD     SCATT.    SCATT.
          (MeV)   (b/atom)  (b/atom)  (b/atom)  (b/atom)  (b/atom)    (cm2/g)   (cm2/g)
 
        1.400E+01 7.825E-05 7.178E-01 1.391E-04 8.543E-01 3.080E-02 2.417E-02 2.417E-02
        1.500E+01 6.817E-05 6.815E-01 1.290E-04 8.897E-01 3.294E-02 2.419E-02 2.418E-02
        1.600E+01 5.991E-05 6.490E-01 1.203E-04 9.229E-01 3.497E-02 2.423E-02 2.423E-02
        1.800E+01 4.734E-05 5.932E-01 1.059E-04 9.836E-01 3.876E-02 2.436E-02 2.436E-02
        2.000E+01 3.834E-05 5.470E-01 9.463E-05 1.038E+00 4.221E-02 2.453E-02 2.453E-02
        2.200E+01 3.169E-05 5.081E-01 8.550E-05 1.087E+00 4.539E-02 2.473E-02 2.473E-02
        2.400E+01 2.663E-05 4.748E-01 7.797E-05 1.132E+00 4.832E-02 2.495E-02 2.495E-02
        2.600E+01 2.269E-05 4.458E-01 7.166E-05 1.172E+00 5.103E-02 2.516E-02 2.516E-02
        2.800E+01 1.956E-05 4.205E-01 6.629E-05 1.210E+00 5.356E-02 2.539E-02 2.539E-02
        3.000E+01 1.704E-05 3.982E-01 6.167E-05 1.245E+00 5.591E-02 2.562E-02 2.561E-02
        4.000E+01 9.586E-06 3.164E-01 4.573E-05 1.388E+00 6.577E-02 2.669E-02 2.669E-02
        5.000E+01 6.135E-06 2.642E-01 3.633E-05 1.495E+00 7.337E-02 2.763E-02 2.763E-02
        6.000E+01 4.260E-06 2.276E-01 3.014E-05 1.578E+00 7.947E-02 2.842E-02 2.842E-02
        8.000E+01 2.396E-06 1.795E-01 2.247E-05 1.702E+00 8.880E-02 2.970E-02 2.970E-02
        1.000E+02 1.534E-06 1.490E-01 1.791E-05 1.791E+00 9.573E-02 3.069E-02 3.069E-02
        1.500E+02 6.816E-07 1.061E-01 1.189E-05 1.936E+00 1.075E-01 3.241E-02 3.241E-02
        2.000E+02 3.834E-07 8.318E-02 8.894E-06 2.024E+00 1.150E-01 3.350E-02 3.350E-02
        3.000E+02 1.704E-07 5.896E-02 5.915E-06 2.129E+00 1.245E-01 3.486E-02 3.486E-02
        4.000E+02 9.586E-08 4.617E-02 4.431E-06 2.190E+00 1.302E-01 3.567E-02 3.567E-02
        5.000E+02 6.135E-08 3.822E-02 3.542E-06 2.230E+00 1.342E-01 3.622E-02 3.622E-02
        6.000E+02 4.260E-08 3.273E-02 2.951E-06 2.259E+00 1.372E-01 3.662E-02 3.662E-02
        8.000E+02 2.396E-08 2.556E-02 2.212E-06 2.298E+00 1.412E-01 3.716E-02 3.716E-02
        1.000E+03 1.534E-08 2.103E-02 1.769E-06 2.323E+00 1.440E-01 3.751E-02 3.751E-02
        1.500E+03 6.816E-09 1.469E-02 1.179E-06 2.360E+00 1.480E-01 3.803E-02 3.803E-02
        2.000E+03 3.834E-09 1.137E-02 8.837E-07 2.380E+00 1.503E-01 3.832E-02 3.832E-02
        3.000E+03 1.704E-09 7.903E-03 5.890E-07 2.402E+00 1.529E-01 3.863E-02 3.863E-02
        4.000E+03 9.586E-10 6.100E-03 4.417E-07 2.414E+00 1.544E-01 3.881E-02 3.881E-02
        5.000E+03 6.135E-10 4.988E-03 3.533E-07 2.421E+00 1.553E-01 3.891E-02 3.891E-02
        6.000E+03 4.260E-10 4.229E-03 2.944E-07 2.426E+00 1.559E-01 3.899E-02 3.899E-02
        8.000E+03 2.396E-10 3.259E-03 2.208E-07 2.433E+00 1.568E-01 3.909E-02 3.909E-02
        1.000E+04 1.534E-10 2.660E-03 1.766E-07 2.437E+00 1.573E-01 3.915E-02 3.915E-02
        1.500E+04 6.816E-11 1.839E-03 1.178E-07 2.443E+00 1.580E-01 3.924E-02 3.924E-02
        2.000E+04 3.834E-11 1.414E-03 8.832E-08 2.447E+00 1.585E-01 3.930E-02 3.930E-02
        3.000E+04 1.704E-11 9.748E-04 5.888E-08 2.450E+00 1.589E-01 3.934E-02 3.934E-02
        4.000E+04 9.586E-12 7.484E-04 4.416E-08 2.452E+00 1.591E-01 3.937E-02 3.937E-02
        5.000E+04 6.135E-12 6.095E-04 3.533E-08 2.453E+00 1.593E-01 3.939E-02 3.939E-02
        6.000E+04 4.260E-12 5.152E-04 2.944E-08 2.453E+00 1.594E-01 3.939E-02 3.939E-02
        8.000E+04 2.396E-12 3.950E-04 2.208E-08 2.454E+00 1.595E-01 3.940E-02 3.940E-02
        1.000E+05 1.534E-12 3.214E-04 1.766E-08 2.455E+00 1.596E-01 3.942E-02 3.942E-02
