        Ca                                                                      
 
        Constituents (Atomic Number:Fraction by Weight)
          20:1.00000
 
        Cross Sections and Attenuation Coefficients
        (Note that 1 b(arn) = 10**(-24) cm2)
 
         PHOTON       SCATTERING       PHOTO-     PAIR PRODUCTION    TOTAL ATTENUATION
         ENERGY   COHERENT  INCOHER.  ELECTRIC     IN        IN        WITH    WITHOUT
                                     ABSORPTION  NUCLEAR  ELECTRON   COHERENT  COHERENT
                                                  FIELD     FIELD     SCATT.    SCATT.
          (MeV)   (b/atom)  (b/atom)  (b/atom)  (b/atom)  (b/atom)    (cm2/g)   (cm2/g)
 
        1.000E-03 2.384E+02 9.944E-01 3.236E+05 0.000E+00 0.000E+00 4.866E+03 4.862E+03
        1.500E-03 2.169E+02 1.568E+00 1.138E+05 0.000E+00 0.000E+00 1.713E+03 1.710E+03
        2.000E-03 1.972E+02 2.063E+00 5.303E+04 0.000E+00 0.000E+00 7.998E+02 7.969E+02
        3.000E-03 1.639E+02 2.982E+00 1.764E+04 0.000E+00 0.000E+00 2.676E+02 2.651E+02
        4.000E-03 1.365E+02 3.804E+00 7.968E+03 0.000E+00 0.000E+00 1.218E+02 1.198E+02
        4.038E-03 1.355E+02 3.833E+00 7.763E+03 0.000E+00 0.000E+00 1.187E+02 1.167E+02
 
 20 K   4.038E-03 1.355E+02 3.833E+00 6.797E+04 0.000E+00 0.000E+00 1.023E+03 1.021E+03
        5.000E-03 1.145E+02 4.522E+00 3.998E+04 0.000E+00 0.000E+00 6.025E+02 6.008E+02
        6.000E-03 9.748E+01 5.139E+00 2.473E+04 0.000E+00 0.000E+00 3.731E+02 3.717E+02
        8.000E-03 7.429E+01 6.105E+00 1.141E+04 0.000E+00 0.000E+00 1.727E+02 1.715E+02
        1.000E-02 5.959E+01 6.814E+00 6.150E+03 0.000E+00 0.000E+00 9.341E+01 9.251E+01
        1.500E-02 3.774E+01 8.028E+00 1.937E+03 0.000E+00 0.000E+00 2.979E+01 2.923E+01
        2.000E-02 2.544E+01 8.801E+00 8.349E+02 0.000E+00 0.000E+00 1.306E+01 1.268E+01
        3.000E-02 1.370E+01 9.576E+00 2.482E+02 0.000E+00 0.000E+00 4.079E+00 3.873E+00
        4.000E-02 8.666E+00 9.853E+00 1.033E+02 0.000E+00 0.000E+00 1.830E+00 1.700E+00
        5.000E-02 6.016E+00 9.922E+00 5.191E+01 0.000E+00 0.000E+00 1.019E+00 9.291E-01
        6.000E-02 4.424E+00 9.889E+00 2.947E+01 0.000E+00 0.000E+00 6.579E-01 5.914E-01
        8.000E-02 2.670E+00 9.677E+00 1.198E+01 0.000E+00 0.000E+00 3.655E-01 3.254E-01
        1.000E-01 1.779E+00 9.388E+00 5.944E+00 0.000E+00 0.000E+00 2.571E-01 2.304E-01
        1.500E-01 8.334E-01 8.641E+00 1.664E+00 0.000E+00 0.000E+00 1.674E-01 1.548E-01
        2.000E-01 4.810E-01 7.994E+00 6.803E-01 0.000E+00 0.000E+00 1.376E-01 1.303E-01
        3.000E-01 2.188E-01 7.007E+00 1.996E-01 0.000E+00 0.000E+00 1.116E-01 1.083E-01
        4.000E-01 1.243E-01 6.299E+00 8.729E-02 0.000E+00 0.000E+00 9.783E-02 9.596E-02
        5.000E-01 7.991E-02 5.763E+00 4.763E-02 0.000E+00 0.000E+00 8.851E-02 8.731E-02
        6.000E-01 5.564E-02 5.337E+00 2.987E-02 0.000E+00 0.000E+00 8.148E-02 8.064E-02
        8.000E-01 3.138E-02 4.693E+00 1.517E-02 0.000E+00 0.000E+00 7.122E-02 7.075E-02
        1.000E+00 2.011E-02 4.222E+00 9.431E-03 0.000E+00 0.000E+00 6.388E-02 6.358E-02
        1.022E+00 1.926E-02 4.178E+00 8.931E-03 0.000E+00 0.000E+00 6.320E-02 6.291E-02
        1.250E+00 1.288E-02 3.777E+00 6.047E-03 3.569E-03 0.000E+00 5.709E-02 5.690E-02
        1.500E+00 8.949E-03 3.433E+00 4.369E-03 1.878E-02 0.000E+00 5.207E-02 5.193E-02
        2.000E+00 5.036E-03 2.930E+00 2.708E-03 7.323E-02 0.000E+00 4.524E-02 4.517E-02
        2.044E+00 4.822E-03 2.894E+00 2.617E-03 7.891E-02 0.000E+00 4.478E-02 4.471E-02
        3.000E+00 2.239E-03 2.306E+00 1.482E-03 2.053E-01 8.070E-04 3.780E-02 3.777E-02
        4.000E+00 1.260E-03 1.924E+00 1.003E-03 3.300E-01 3.295E-03 3.395E-02 3.393E-02
        5.000E+00 8.062E-04 1.661E+00 7.539E-04 4.405E-01 6.564E-03 3.170E-02 3.169E-02
        6.000E+00 5.599E-04 1.469E+00 6.021E-04 5.393E-01 1.008E-02 3.035E-02 3.034E-02
        7.000E+00 4.113E-04 1.320E+00 5.004E-04 6.271E-01 1.359E-02 2.948E-02 2.947E-02
        8.000E+00 3.149E-04 1.201E+00 4.278E-04 7.062E-01 1.699E-02 2.892E-02 2.892E-02
        9.000E+00 2.488E-04 1.104E+00 3.733E-04 7.777E-01 2.025E-02 2.859E-02 2.858E-02
        1.000E+01 2.016E-04 1.023E+00 3.310E-04 8.426E-01 2.335E-02 2.839E-02 2.839E-02
        1.100E+01 1.666E-04 9.543E-01 2.973E-04 9.015E-01 2.630E-02 2.829E-02 2.828E-02
        1.200E+01 1.400E-04 8.949E-01 2.698E-04 9.554E-01 2.907E-02 2.825E-02 2.824E-02
        1.300E+01 1.193E-04 8.431E-01 2.469E-04 1.005E+00 3.170E-02 2.825E-02 2.825E-02
 
        Ca                                                                      
 
        Constituents (Atomic Number:Fraction by Weight)
          20:1.00000
 
        Cross Sections and Attenuation Coefficients
        (Note that 1 b(arn) = 10**(-24) cm2)
 
         PHOTON       SCATTERING       PHOTO-     PAIR PRODUCTION    TOTAL ATTENUATION
         ENERGY   COHERENT  INCOHER.  ELECTRIC     IN        IN        WITH    WITHOUT
                                     ABSORPTION  NUCLEAR  ELECTRON   COHERENT  COHERENT
                                                  FIELD     FIELD     SCATT.    SCATT.
          (MeV)   (b/atom)  (b/atom)  (b/atom)  (b/atom)  (b/atom)    (cm2/g)   (cm2/g)
 
        1.400E+01 1.028E-04 7.976E-01 2.275E-04 1.052E+00 3.420E-02 2.831E-02 2.831E-02
        1.500E+01 8.958E-05 7.572E-01 2.110E-04 1.095E+00 3.657E-02 2.839E-02 2.838E-02
        1.600E+01 7.874E-05 7.211E-01 1.967E-04 1.136E+00 3.883E-02 2.849E-02 2.849E-02
        1.800E+01 6.221E-05 6.591E-01 1.731E-04 1.211E+00 4.302E-02 2.875E-02 2.875E-02
        2.000E+01 5.039E-05 6.078E-01 1.546E-04 1.277E+00 4.685E-02 2.903E-02 2.903E-02
        2.200E+01 4.165E-05 5.645E-01 1.397E-04 1.337E+00 5.037E-02 2.933E-02 2.933E-02
        2.400E+01 3.499E-05 5.275E-01 1.274E-04 1.392E+00 5.361E-02 2.965E-02 2.965E-02
        2.600E+01 2.982E-05 4.953E-01 1.170E-04 1.442E+00 5.662E-02 2.996E-02 2.996E-02
        2.800E+01 2.571E-05 4.673E-01 1.083E-04 1.489E+00 5.941E-02 3.029E-02 3.029E-02
        3.000E+01 2.240E-05 4.425E-01 1.007E-04 1.531E+00 6.202E-02 3.059E-02 3.059E-02
        4.000E+01 1.260E-05 3.516E-01 7.464E-05 1.706E+00 7.292E-02 3.201E-02 3.201E-02
        5.000E+01 8.063E-06 2.935E-01 5.929E-05 1.836E+00 8.131E-02 3.322E-02 3.322E-02
        6.000E+01 5.599E-06 2.529E-01 4.917E-05 1.938E+00 8.804E-02 3.424E-02 3.424E-02
        8.000E+01 3.149E-06 1.994E-01 3.666E-05 2.090E+00 9.834E-02 3.588E-02 3.588E-02
        1.000E+02 2.016E-06 1.655E-01 2.922E-05 2.199E+00 1.060E-01 3.712E-02 3.712E-02
        1.500E+02 8.958E-07 1.179E-01 1.939E-05 2.376E+00 1.189E-01 3.926E-02 3.926E-02
        2.000E+02 5.039E-07 9.242E-02 1.450E-05 2.484E+00 1.272E-01 4.062E-02 4.062E-02
        3.000E+02 2.239E-07 6.551E-02 9.646E-06 2.611E+00 1.377E-01 4.229E-02 4.229E-02
        4.000E+02 1.260E-07 5.130E-02 7.226E-06 2.686E+00 1.441E-01 4.330E-02 4.330E-02
        5.000E+02 8.062E-08 4.247E-02 5.777E-06 2.736E+00 1.486E-01 4.398E-02 4.398E-02
        6.000E+02 5.599E-08 3.636E-02 4.811E-06 2.772E+00 1.519E-01 4.448E-02 4.448E-02
        8.000E+02 3.149E-08 2.840E-02 3.606E-06 2.820E+00 1.566E-01 4.515E-02 4.515E-02
        1.000E+03 2.015E-08 2.336E-02 2.884E-06 2.851E+00 1.598E-01 4.559E-02 4.559E-02
        1.500E+03 8.958E-09 1.632E-02 1.922E-06 2.897E+00 1.646E-01 4.625E-02 4.625E-02
        2.000E+03 5.039E-09 1.263E-02 1.441E-06 2.922E+00 1.674E-01 4.661E-02 4.661E-02
        3.000E+03 2.239E-09 8.781E-03 9.604E-07 2.949E+00 1.705E-01 4.701E-02 4.701E-02
        4.000E+03 1.260E-09 6.778E-03 7.202E-07 2.964E+00 1.723E-01 4.723E-02 4.723E-02
        5.000E+03 8.062E-10 5.542E-03 5.761E-07 2.973E+00 1.734E-01 4.736E-02 4.736E-02
        6.000E+03 5.599E-10 4.699E-03 4.801E-07 2.979E+00 1.742E-01 4.745E-02 4.745E-02
        8.000E+03 3.149E-10 3.621E-03 3.600E-07 2.988E+00 1.753E-01 4.759E-02 4.759E-02
        1.000E+04 2.015E-10 2.956E-03 2.880E-07 2.993E+00 1.760E-01 4.766E-02 4.766E-02
        1.500E+04 8.958E-11 2.043E-03 1.920E-07 3.001E+00 1.769E-01 4.778E-02 4.778E-02
        2.000E+04 5.039E-11 1.571E-03 1.440E-07 3.005E+00 1.775E-01 4.784E-02 4.784E-02
        3.000E+04 2.239E-11 1.083E-03 9.600E-08 3.009E+00 1.780E-01 4.790E-02 4.790E-02
        4.000E+04 1.260E-11 8.316E-04 7.200E-08 3.011E+00 1.783E-01 4.794E-02 4.794E-02
        5.000E+04 8.062E-12 6.772E-04 5.760E-08 3.012E+00 1.785E-01 4.795E-02 4.795E-02
        6.000E+04 5.599E-12 5.724E-04 4.800E-08 3.013E+00 1.786E-01 4.797E-02 4.797E-02
        8.000E+04 3.149E-12 4.389E-04 3.600E-08 3.015E+00 1.788E-01 4.800E-02 4.800E-02
        1.000E+05 2.015E-12 3.571E-04 2.880E-08 3.015E+00 1.789E-01 4.800E-02 4.800E-02
