        Co                                                                      
 
        Constituents (Atomic Number:Fraction by Weight)
          27:1.00000
 
        Cross Sections and Attenuation Coefficients
        (Note that 1 b(arn) = 10**(-24) cm2)
 
         PHOTON       SCATTERING       PHOTO-     PAIR PRODUCTION    TOTAL ATTENUATION
         ENERGY   COHERENT  INCOHER.  ELECTRIC     IN        IN        WITH    WITHOUT
                                     ABSORPTION  NUCLEAR  ELECTRON   COHERENT  COHERENT
                                                  FIELD     FIELD     SCATT.    SCATT.
          (MeV)   (b/atom)  (b/atom)  (b/atom)  (b/atom)  (b/atom)    (cm2/g)   (cm2/g)
 
        1.000E-03 4.559E+02 7.869E-01 9.581E+05 0.000E+00 0.000E+00 9.795E+03 9.790E+03
        1.500E-03 4.280E+02 1.387E+00 3.613E+05 0.000E+00 0.000E+00 3.696E+03 3.692E+03
        2.000E-03 3.983E+02 1.941E+00 1.737E+05 0.000E+00 0.000E+00 1.779E+03 1.775E+03
        3.000E-03 3.417E+02 2.955E+00 5.963E+04 0.000E+00 0.000E+00 6.129E+02 6.094E+02
        4.000E-03 2.917E+02 3.903E+00 2.740E+04 0.000E+00 0.000E+00 2.830E+02 2.800E+02
        5.000E-03 2.487E+02 4.777E+00 1.485E+04 0.000E+00 0.000E+00 1.543E+02 1.518E+02
        6.000E-03 2.127E+02 5.571E+00 8.953E+03 0.000E+00 0.000E+00 9.372E+01 9.154E+01
        7.709E-03 1.655E+02 6.759E+00 4.438E+03 0.000E+00 0.000E+00 4.711E+01 4.542E+01
 
 27 K   7.709E-03 1.655E+02 6.759E+00 3.462E+04 0.000E+00 0.000E+00 3.555E+02 3.538E+02
        8.000E-03 1.591E+02 6.941E+00 3.162E+04 0.000E+00 0.000E+00 3.248E+02 3.232E+02
        1.000E-02 1.236E+02 8.052E+00 1.789E+04 0.000E+00 0.000E+00 1.842E+02 1.829E+02
        1.500E-02 7.617E+01 9.945E+00 5.982E+03 0.000E+00 0.000E+00 6.201E+01 6.123E+01
        2.000E-02 5.276E+01 1.108E+01 2.679E+03 0.000E+00 0.000E+00 2.803E+01 2.749E+01
        3.000E-02 2.919E+01 1.230E+01 8.355E+02 0.000E+00 0.000E+00 8.962E+00 8.663E+00
        4.000E-02 1.840E+01 1.282E+01 3.583E+02 0.000E+00 0.000E+00 3.980E+00 3.792E+00
        5.000E-02 1.274E+01 1.300E+01 1.841E+02 0.000E+00 0.000E+00 2.144E+00 2.014E+00
        6.000E-02 9.392E+00 1.300E+01 1.062E+02 0.000E+00 0.000E+00 1.314E+00 1.218E+00
        8.000E-02 5.737E+00 1.279E+01 4.424E+01 0.000E+00 0.000E+00 6.414E-01 5.828E-01
        1.000E-01 3.861E+00 1.246E+01 2.233E+01 0.000E+00 0.000E+00 3.950E-01 3.555E-01
        1.500E-01 1.829E+00 1.154E+01 6.427E+00 0.000E+00 0.000E+00 2.023E-01 1.836E-01
        2.000E-01 1.061E+00 1.071E+01 2.673E+00 0.000E+00 0.000E+00 1.476E-01 1.368E-01
        3.000E-01 4.860E-01 9.420E+00 8.009E-01 0.000E+00 0.000E+00 1.094E-01 1.044E-01
        4.000E-01 2.770E-01 8.481E+00 3.544E-01 0.000E+00 0.000E+00 9.312E-02 9.029E-02
        5.000E-01 1.785E-01 7.764E+00 1.948E-01 0.000E+00 0.000E+00 8.315E-02 8.133E-02
        6.000E-01 1.245E-01 7.194E+00 1.227E-01 0.000E+00 0.000E+00 7.604E-02 7.477E-02
        8.000E-01 7.032E-02 6.330E+00 6.252E-02 0.000E+00 0.000E+00 6.604E-02 6.532E-02
        1.000E+00 4.510E-02 5.696E+00 3.890E-02 0.000E+00 0.000E+00 5.906E-02 5.860E-02
        1.022E+00 4.318E-02 5.636E+00 3.693E-02 0.000E+00 0.000E+00 5.841E-02 5.797E-02
        1.250E+00 2.890E-02 5.096E+00 2.497E-02 7.130E-03 0.000E+00 5.270E-02 5.240E-02
        1.500E+00 2.008E-02 4.633E+00 1.800E-02 3.613E-02 0.000E+00 4.810E-02 4.790E-02
        2.000E+00 1.131E-02 3.955E+00 1.109E-02 1.369E-01 0.000E+00 4.204E-02 4.193E-02
        2.044E+00 1.082E-02 3.907E+00 1.072E-02 1.473E-01 0.000E+00 4.165E-02 4.154E-02
        3.000E+00 5.027E-03 3.113E+00 6.016E-03 3.788E-01 1.089E-03 3.581E-02 3.575E-02
        4.000E+00 2.828E-03 2.597E+00 4.049E-03 6.043E-01 4.447E-03 3.283E-02 3.280E-02
        5.000E+00 1.810E-03 2.243E+00 3.029E-03 8.034E-01 8.858E-03 3.127E-02 3.125E-02
        6.000E+00 1.257E-03 1.982E+00 2.412E-03 9.807E-01 1.360E-02 3.045E-02 3.044E-02
        7.000E+00 9.237E-04 1.782E+00 2.000E-03 1.138E+00 1.833E-02 3.006E-02 3.005E-02
        8.000E+00 7.072E-04 1.622E+00 1.706E-03 1.280E+00 2.291E-02 2.991E-02 2.991E-02
        9.000E+00 5.588E-04 1.491E+00 1.487E-03 1.408E+00 2.730E-02 2.992E-02 2.992E-02
        1.000E+01 4.526E-04 1.381E+00 1.317E-03 1.524E+00 3.148E-02 3.002E-02 3.002E-02
        1.100E+01 3.741E-04 1.288E+00 1.181E-03 1.630E+00 3.543E-02 3.020E-02 3.019E-02
        1.200E+01 3.143E-04 1.208E+00 1.071E-03 1.726E+00 3.917E-02 3.040E-02 3.039E-02
        1.300E+01 2.678E-04 1.138E+00 9.791E-04 1.815E+00 4.270E-02 3.062E-02 3.062E-02
 
        Co                                                                      
 
        Constituents (Atomic Number:Fraction by Weight)
          27:1.00000
 
        Cross Sections and Attenuation Coefficients
        (Note that 1 b(arn) = 10**(-24) cm2)
 
         PHOTON       SCATTERING       PHOTO-     PAIR PRODUCTION    TOTAL ATTENUATION
         ENERGY   COHERENT  INCOHER.  ELECTRIC     IN        IN        WITH    WITHOUT
                                     ABSORPTION  NUCLEAR  ELECTRON   COHERENT  COHERENT
                                                  FIELD     FIELD     SCATT.    SCATT.
          (MeV)   (b/atom)  (b/atom)  (b/atom)  (b/atom)  (b/atom)    (cm2/g)   (cm2/g)
 
        1.400E+01 2.309E-04 1.077E+00 9.017E-04 1.899E+00 4.606E-02 3.089E-02 3.089E-02
        1.500E+01 2.012E-04 1.022E+00 8.357E-04 1.976E+00 4.924E-02 3.115E-02 3.115E-02
        1.600E+01 1.768E-04 9.735E-01 7.785E-04 2.049E+00 5.227E-02 3.143E-02 3.143E-02
        1.800E+01 1.397E-04 8.897E-01 6.848E-04 2.183E+00 5.789E-02 3.200E-02 3.200E-02
        2.000E+01 1.132E-04 8.205E-01 6.112E-04 2.302E+00 6.302E-02 3.256E-02 3.256E-02
        2.200E+01 9.352E-05 7.621E-01 5.518E-04 2.410E+00 6.773E-02 3.311E-02 3.311E-02
        2.400E+01 7.858E-05 7.121E-01 5.029E-04 2.508E+00 7.206E-02 3.365E-02 3.365E-02
        2.600E+01 6.696E-05 6.687E-01 4.619E-04 2.598E+00 7.608E-02 3.416E-02 3.416E-02
        2.800E+01 5.773E-05 6.308E-01 4.271E-04 2.680E+00 7.981E-02 3.465E-02 3.465E-02
        3.000E+01 5.029E-05 5.973E-01 3.971E-04 2.756E+00 8.328E-02 3.512E-02 3.512E-02
        4.000E+01 2.829E-05 4.747E-01 2.940E-04 3.065E+00 9.778E-02 3.717E-02 3.717E-02
        5.000E+01 1.811E-05 3.962E-01 2.334E-04 3.296E+00 1.089E-01 3.884E-02 3.884E-02
        6.000E+01 1.257E-05 3.414E-01 1.935E-04 3.478E+00 1.178E-01 4.023E-02 4.023E-02
        8.000E+01 7.072E-06 2.692E-01 1.441E-04 3.748E+00 1.313E-01 4.239E-02 4.239E-02
        1.000E+02 4.526E-06 2.235E-01 1.148E-04 3.941E+00 1.412E-01 4.400E-02 4.400E-02
        1.500E+02 2.012E-06 1.591E-01 7.616E-05 4.251E+00 1.578E-01 4.668E-02 4.668E-02
        2.000E+02 1.131E-06 1.248E-01 5.697E-05 4.437E+00 1.684E-01 4.834E-02 4.834E-02
        3.000E+02 5.029E-07 8.844E-02 3.787E-05 4.655E+00 1.814E-01 5.033E-02 5.033E-02
        4.000E+02 2.829E-07 6.926E-02 2.837E-05 4.781E+00 1.893E-01 5.150E-02 5.150E-02
        5.000E+02 1.810E-07 5.733E-02 2.268E-05 4.864E+00 1.947E-01 5.228E-02 5.228E-02
        6.000E+02 1.257E-07 4.909E-02 1.889E-05 4.924E+00 1.987E-01 5.285E-02 5.285E-02
        8.000E+02 7.072E-08 3.834E-02 1.416E-05 5.003E+00 2.042E-01 5.360E-02 5.360E-02
        1.000E+03 4.526E-08 3.154E-02 1.132E-05 5.054E+00 2.080E-01 5.409E-02 5.409E-02
        1.500E+03 2.012E-08 2.203E-02 7.542E-06 5.129E+00 2.135E-01 5.482E-02 5.482E-02
        2.000E+03 1.131E-08 1.705E-02 5.655E-06 5.169E+00 2.167E-01 5.521E-02 5.521E-02
        3.000E+03 5.029E-09 1.185E-02 3.769E-06 5.213E+00 2.201E-01 5.564E-02 5.564E-02
        4.000E+03 2.829E-09 9.150E-03 2.826E-06 5.237E+00 2.222E-01 5.588E-02 5.588E-02
        5.000E+03 1.810E-09 7.481E-03 2.261E-06 5.252E+00 2.234E-01 5.603E-02 5.603E-02
        6.000E+03 1.257E-09 6.344E-03 1.884E-06 5.262E+00 2.243E-01 5.613E-02 5.613E-02
        8.000E+03 7.072E-10 4.888E-03 1.413E-06 5.276E+00 2.255E-01 5.627E-02 5.627E-02
        1.000E+04 4.526E-10 3.991E-03 1.130E-06 5.285E+00 2.262E-01 5.636E-02 5.636E-02
        1.500E+04 2.012E-10 2.758E-03 7.535E-07 5.296E+00 2.273E-01 5.647E-02 5.647E-02
        2.000E+04 1.131E-10 2.120E-03 5.651E-07 5.303E+00 2.278E-01 5.654E-02 5.654E-02
        3.000E+04 5.029E-11 1.462E-03 3.767E-07 5.309E+00 2.284E-01 5.660E-02 5.660E-02
        4.000E+04 2.829E-11 1.123E-03 2.825E-07 5.313E+00 2.288E-01 5.664E-02 5.664E-02
        5.000E+04 1.810E-11 9.142E-04 2.260E-07 5.315E+00 2.290E-01 5.666E-02 5.666E-02
        6.000E+04 1.257E-11 7.728E-04 1.884E-07 5.317E+00 2.291E-01 5.668E-02 5.668E-02
        8.000E+04 7.072E-12 5.925E-04 1.413E-07 5.319E+00 2.293E-01 5.670E-02 5.670E-02
        1.000E+05 4.526E-12 4.821E-04 1.130E-07 5.320E+00 2.294E-01 5.671E-02 5.671E-02
