        N                                                                       
 
        Constituents (Atomic Number:Fraction by Weight)
           7:1.00000
 
        Cross Sections and Attenuation Coefficients
        (Note that 1 b(arn) = 10**(-24) cm2)
 
         PHOTON       SCATTERING       PHOTO-     PAIR PRODUCTION    TOTAL ATTENUATION
         ENERGY   COHERENT  INCOHER.  ELECTRIC     IN        IN        WITH    WITHOUT
                                     ABSORPTION  NUCLEAR  ELECTRON   COHERENT  COHERENT
                                                  FIELD     FIELD     SCATT.    SCATT.
          (MeV)   (b/atom)  (b/atom)  (b/atom)  (b/atom)  (b/atom)    (cm2/g)   (cm2/g)
 
        1.000E-03 3.003E+01 2.560E-01 7.699E+04 0.000E+00 0.000E+00 3.311E+03 3.310E+03
        1.500E-03 2.734E+01 5.198E-01 2.515E+04 0.000E+00 0.000E+00 1.083E+03 1.081E+03
        2.000E-03 2.432E+01 8.165E-01 1.107E+04 0.000E+00 0.000E+00 4.770E+02 4.760E+02
        3.000E-03 1.861E+01 1.392E+00 3.367E+03 0.000E+00 0.000E+00 1.456E+02 1.448E+02
        4.000E-03 1.421E+01 1.866E+00 1.418E+03 0.000E+00 0.000E+00 6.166E+01 6.105E+01
        5.000E-03 1.110E+01 2.225E+00 7.180E+02 0.000E+00 0.000E+00 3.144E+01 3.097E+01
        6.000E-03 8.927E+00 2.494E+00 4.092E+02 0.000E+00 0.000E+00 1.808E+01 1.770E+01
        8.000E-03 6.246E+00 2.858E+00 1.667E+02 0.000E+00 0.000E+00 7.559E+00 7.290E+00
        1.000E-02 4.722E+00 3.093E+00 8.241E+01 0.000E+00 0.000E+00 3.879E+00 3.676E+00
        1.500E-02 2.805E+00 3.449E+00 2.250E+01 0.000E+00 0.000E+00 1.236E+00 1.116E+00
        2.000E-02 1.870E+00 3.645E+00 8.856E+00 0.000E+00 0.000E+00 6.179E-01 5.375E-01
        3.000E-02 9.839E-01 3.800E+00 2.348E+00 0.000E+00 0.000E+00 3.066E-01 2.643E-01
        4.000E-02 6.009E-01 3.811E+00 9.087E-01 0.000E+00 0.000E+00 2.288E-01 2.029E-01
        5.000E-02 4.042E-01 3.766E+00 4.340E-01 0.000E+00 0.000E+00 1.980E-01 1.806E-01
        6.000E-02 2.901E-01 3.700E+00 2.369E-01 0.000E+00 0.000E+00 1.817E-01 1.693E-01
        8.000E-02 1.697E-01 3.551E+00 9.114E-02 0.000E+00 0.000E+00 1.639E-01 1.566E-01
        1.000E-01 1.109E-01 3.403E+00 4.347E-02 0.000E+00 0.000E+00 1.529E-01 1.482E-01
        1.500E-01 5.046E-02 3.085E+00 1.144E-02 0.000E+00 0.000E+00 1.353E-01 1.331E-01
        2.000E-01 2.863E-02 2.834E+00 4.516E-03 0.000E+00 0.000E+00 1.233E-01 1.220E-01
        3.000E-01 1.281E-02 2.470E+00 1.270E-03 0.000E+00 0.000E+00 1.068E-01 1.063E-01
        4.000E-01 7.221E-03 2.215E+00 5.428E-04 0.000E+00 0.000E+00 9.557E-02 9.526E-02
        5.000E-01 4.626E-03 2.023E+00 2.922E-04 0.000E+00 0.000E+00 8.719E-02 8.699E-02
        6.000E-01 3.215E-03 1.872E+00 1.819E-04 0.000E+00 0.000E+00 8.063E-02 8.049E-02
        8.000E-01 1.809E-03 1.645E+00 9.177E-05 0.000E+00 0.000E+00 7.081E-02 7.073E-02
        1.000E+00 1.158E-03 1.479E+00 5.704E-05 0.000E+00 0.000E+00 6.364E-02 6.359E-02
        1.022E+00 1.109E-03 1.464E+00 5.293E-05 0.000E+00 0.000E+00 6.299E-02 6.295E-02
        1.250E+00 7.414E-04 1.323E+00 3.593E-05 3.931E-04 0.000E+00 5.693E-02 5.690E-02
        1.500E+00 5.149E-04 1.202E+00 2.609E-05 2.177E-03 0.000E+00 5.180E-02 5.177E-02
        2.000E+00 2.897E-04 1.026E+00 1.643E-05 8.667E-03 0.000E+00 4.450E-02 4.449E-02
        2.044E+00 2.773E-04 1.013E+00 1.590E-05 9.343E-03 0.000E+00 4.397E-02 4.396E-02
        3.000E+00 1.287E-04 8.073E-01 9.200E-06 2.479E-02 2.824E-04 3.579E-02 3.579E-02
        4.000E+00 7.243E-05 6.734E-01 6.323E-06 4.023E-02 1.153E-03 3.074E-02 3.073E-02
        5.000E+00 4.635E-05 5.815E-01 4.799E-06 5.398E-02 2.298E-03 2.742E-02 2.742E-02
        6.000E+00 3.219E-05 5.140E-01 3.861E-06 6.636E-02 3.529E-03 2.511E-02 2.510E-02
        7.000E+00 2.365E-05 4.620E-01 3.227E-06 7.737E-02 4.759E-03 2.340E-02 2.339E-02
        8.000E+00 1.811E-05 4.205E-01 2.770E-06 8.731E-02 5.952E-03 2.209E-02 2.209E-02
        9.000E+00 1.431E-05 3.865E-01 2.426E-06 9.633E-02 7.097E-03 2.106E-02 2.106E-02
        1.000E+01 1.159E-05 3.581E-01 2.157E-06 1.045E-01 8.188E-03 2.024E-02 2.024E-02
        1.100E+01 9.577E-06 3.340E-01 1.942E-06 1.120E-01 9.223E-03 1.957E-02 1.957E-02
        1.200E+01 8.047E-06 3.132E-01 1.766E-06 1.188E-01 1.020E-02 1.901E-02 1.901E-02
        1.300E+01 6.857E-06 2.951E-01 1.619E-06 1.252E-01 1.113E-02 1.855E-02 1.855E-02
        1.400E+01 5.912E-06 2.792E-01 1.494E-06 1.311E-01 1.201E-02 1.816E-02 1.816E-02
        1.500E+01 5.150E-06 2.650E-01 1.387E-06 1.367E-01 1.285E-02 1.782E-02 1.782E-02
        1.600E+01 4.527E-06 2.524E-01 1.295E-06 1.419E-01 1.365E-02 1.754E-02 1.754E-02
 
        N                                                                       
 
        Constituents (Atomic Number:Fraction by Weight)
           7:1.00000
 
        Cross Sections and Attenuation Coefficients
        (Note that 1 b(arn) = 10**(-24) cm2)
 
         PHOTON       SCATTERING       PHOTO-     PAIR PRODUCTION    TOTAL ATTENUATION
         ENERGY   COHERENT  INCOHER.  ELECTRIC     IN        IN        WITH    WITHOUT
                                     ABSORPTION  NUCLEAR  ELECTRON   COHERENT  COHERENT
                                                  FIELD     FIELD     SCATT.    SCATT.
          (MeV)   (b/atom)  (b/atom)  (b/atom)  (b/atom)  (b/atom)    (cm2/g)   (cm2/g)
 
        1.800E+01 3.577E-06 2.307E-01 1.142E-06 1.514E-01 1.514E-02 1.708E-02 1.708E-02
        2.000E+01 2.897E-06 2.127E-01 1.022E-06 1.599E-01 1.650E-02 1.673E-02 1.673E-02
        2.200E+01 2.394E-06 1.976E-01 9.241E-07 1.677E-01 1.776E-02 1.647E-02 1.647E-02
        2.400E+01 2.012E-06 1.846E-01 8.435E-07 1.747E-01 1.892E-02 1.626E-02 1.626E-02
        2.600E+01 1.714E-06 1.734E-01 7.759E-07 1.812E-01 2.000E-02 1.611E-02 1.611E-02
        2.800E+01 1.478E-06 1.636E-01 7.183E-07 1.871E-01 2.101E-02 1.598E-02 1.598E-02
        3.000E+01 1.288E-06 1.549E-01 6.686E-07 1.926E-01 2.195E-02 1.588E-02 1.588E-02
        4.000E+01 7.242E-07 1.231E-01 4.968E-07 2.153E-01 2.591E-02 1.566E-02 1.566E-02
        5.000E+01 4.635E-07 1.027E-01 3.952E-07 2.325E-01 2.900E-02 1.566E-02 1.566E-02
        6.000E+01 3.219E-07 8.851E-02 3.281E-07 2.462E-01 3.150E-02 1.575E-02 1.575E-02
        8.000E+01 1.810E-07 6.980E-02 2.450E-07 2.667E-01 3.539E-02 1.599E-02 1.599E-02
        1.000E+02 1.159E-07 5.794E-02 1.954E-07 2.819E-01 3.832E-02 1.626E-02 1.626E-02
        1.500E+02 5.149E-08 4.126E-02 1.298E-07 3.071E-01 4.340E-02 1.684E-02 1.684E-02
        2.000E+02 2.896E-08 3.235E-02 9.715E-08 3.229E-01 4.675E-02 1.728E-02 1.728E-02
        3.000E+02 1.287E-08 2.293E-02 6.465E-08 3.418E-01 5.102E-02 1.787E-02 1.787E-02
        4.000E+02 7.241E-09 1.796E-02 4.844E-08 3.530E-01 5.368E-02 1.826E-02 1.826E-02
        5.000E+02 4.634E-09 1.486E-02 3.873E-08 3.605E-01 5.554E-02 1.853E-02 1.853E-02
        6.000E+02 3.218E-09 1.273E-02 3.226E-08 3.659E-01 5.692E-02 1.873E-02 1.873E-02
        8.000E+02 1.810E-09 9.940E-03 2.418E-08 3.731E-01 5.884E-02 1.900E-02 1.900E-02
        1.000E+03 1.159E-09 8.178E-03 1.934E-08 3.779E-01 6.014E-02 1.918E-02 1.918E-02
        1.500E+03 5.149E-10 5.711E-03 1.289E-08 3.848E-01 6.209E-02 1.946E-02 1.946E-02
        2.000E+03 2.896E-10 4.420E-03 9.666E-09 3.887E-01 6.320E-02 1.962E-02 1.962E-02
        3.000E+03 1.287E-10 3.073E-03 6.443E-09 3.928E-01 6.443E-02 1.979E-02 1.979E-02
        4.000E+03 7.241E-11 2.372E-03 4.831E-09 3.951E-01 6.515E-02 1.989E-02 1.989E-02
        5.000E+03 4.634E-11 1.940E-03 3.865E-09 3.965E-01 6.559E-02 1.995E-02 1.995E-02
        6.000E+03 3.218E-11 1.645E-03 3.221E-09 3.975E-01 6.590E-02 1.999E-02 1.999E-02
        8.000E+03 1.810E-11 1.267E-03 2.415E-09 3.988E-01 6.632E-02 2.005E-02 2.005E-02
        1.000E+04 1.159E-11 1.035E-03 1.932E-09 3.996E-01 6.658E-02 2.009E-02 2.009E-02
        1.500E+04 5.149E-12 7.150E-04 1.288E-09 4.008E-01 6.694E-02 2.014E-02 2.014E-02
        2.000E+04 2.896E-12 5.497E-04 9.661E-10 4.014E-01 6.715E-02 2.017E-02 2.017E-02
        3.000E+04 1.287E-12 3.791E-04 6.440E-10 4.020E-01 6.735E-02 2.020E-02 2.020E-02
        4.000E+04 7.241E-13 2.911E-04 4.830E-10 4.024E-01 6.748E-02 2.021E-02 2.021E-02
        5.000E+04 4.634E-13 2.370E-04 3.864E-10 4.026E-01 6.755E-02 2.022E-02 2.022E-02
        6.000E+04 3.218E-13 2.003E-04 3.220E-10 4.027E-01 6.760E-02 2.023E-02 2.023E-02
        8.000E+04 1.810E-13 1.536E-04 2.415E-10 4.029E-01 6.766E-02 2.024E-02 2.024E-02
        1.000E+05 1.159E-13 1.250E-04 1.932E-10 4.030E-01 6.770E-02 2.024E-02 2.024E-02
